# example-1.data
# Columns:
# 1: x (m)
# 2: T[0] (K)
# 3: T[1] (K)
# 4: T[2] (K)
# 5: p (Pa)
# 6: rho (kg/m^3)
# 7: u (m/s)
# 8: massf[0]-O2
# 9: massf[1]-N2
       0.00000000000       25105.5981607        205.000000000        205.000000000        1822.41498754    0.000251878746166        1207.87742294       0.232918628166       0.767081371834 
   0.000104059380108       25031.5972288        1280.83976849        1227.39375491        1823.77050159    0.000252811277027        1203.42199284       0.232918628166       0.767081371834 
   0.000205997951682       24960.3062391        1812.06263045        1580.38795409        1825.07399616    0.000253714556797        1199.13754517       0.232918628166       0.767081371834 
   0.000423659060457       24811.9956437        2800.81742480        2185.08913012        1827.77829929    0.000255609292425        1190.24878918       0.232918628166       0.767081371834 
   0.000613736726637       24686.7247978        3588.04373984        2648.20688236        1830.05474409    0.000257226331114        1182.76635792       0.232918628166       0.767081371834 
   0.000825205369389       24551.7816176        4408.46070402        3127.25269459        1832.49909542    0.000258985574199        1174.73203577       0.232918628166       0.767081371834 
    0.00104882988006       24413.9830172        5223.59842944        3606.01115871        1834.98683790    0.000260800928321        1166.55509155       0.232918628166       0.767081371834 
    0.00115402190343       24350.7778770        5591.16336961        3823.63013368        1836.12511645    0.000261640065889        1162.81369131       0.232918628166       0.767081371834 
    0.00121671707506       24313.5976387        5805.68092014        3951.28938984        1836.79388959    0.000262135607710        1160.61550535       0.232918628166       0.767081371834 
    0.00126923160149       24282.7400387        5982.79801216        4057.09726507        1837.34847786    0.000262547967768        1158.79263282       0.232918628166       0.767081371834 
    0.00131269947623       24257.3932826        6127.68589285        4143.93392771        1837.80371277    0.000262887425146        1157.29632425       0.232918628166       0.767081371834 
    0.00134838656516       24236.7147527        6245.50453735        4214.73818033        1838.17489847    0.000263164859463        1156.07627642       0.232918628166       0.767081371834 
    0.00137812441844       24219.5733720        6342.91585327        4273.41001028        1838.48245084    0.000263395176474        1155.06538459       0.232918628166       0.767081371834 
    0.00140571557192       24203.7426281        6432.67871046        4327.58287288        1838.76637468    0.000263608156927        1154.13215721       0.232918628166       0.767081371834 
    0.00143239782080       24188.5003160        6518.92738723        4379.73337472        1839.03964264    0.000263813469598        1153.23395457       0.232918628166       0.767081371834 
    0.00151010529881       24144.4825367        6767.06243650        4530.31182717        1839.82824154    0.000264407759779        1150.64191409       0.232918628166       0.767081371834 
    0.00161009614740       24088.6505723        7079.91879984        4721.31833517        1840.82729756    0.000265164506696        1147.35812347       0.232918628166       0.767081371834 
    0.00170658344906       24035.6252092        7375.28539846        4902.82005177        1841.77489494    0.000265886289302        1144.24347194       0.232918628166       0.767081371834 
    0.00180030337945       23984.9082796        7656.35592120        5076.57807573        1842.68011552    0.000266579472924        1141.26810844       0.232918628166       0.767081371834 
    0.00191460825054       23924.0856865        7991.79723362        5285.24371589        1843.76426384    0.000267414444123        1137.70462852       0.232918628166       0.767081371834 
    0.00200443606200       23877.0724543        8250.00936901        5446.79902900        1844.60118924    0.000268062599399        1134.95374399       0.232918628166       0.767081371834 
    0.00211537190317       23819.9494005        8562.66895543        5643.46538458        1845.61683313    0.000268853395355        1131.61543082       0.232918628166       0.767081371834 
    0.00220342249880       23775.3365937        8806.14479759        5797.37938588        1846.40909104    0.000269473506312        1129.01136359       0.232918628166       0.767081371834 
    0.00231301617776       23720.6914325        9103.65707143        5986.32793082        1847.37837214    0.000270236077468        1125.82543997       0.232918628166       0.767081371834 
    0.00240055672971       23677.7349458        9337.06365699        6135.21470093        1848.13944701    0.000270837876297        1123.32386804       0.232918628166       0.767081371834 
    0.00251008331828       23624.8417319        9623.99627055        6319.00404798        1849.07551915    0.000271581735097        1120.24709874       0.232918628166       0.767081371834 
    0.00261997335902       23572.7087608        9906.39556637        6500.68397362        1849.99700138    0.000272318001699        1117.21828493       0.232918628166       0.767081371834 
    0.00270830429913       23531.4717176        10129.5421750        6644.78862234        1850.72509557    0.000272902580128        1114.82511697       0.232918628166       0.767081371834 
    0.00281941457823       23480.4313462        10405.5144988        6823.66169046        1851.62531018    0.000273628831196        1111.86620753       0.232918628166       0.767081371834 
    0.00290897659153       23439.9528504        10624.2390896        6965.93935695        1852.33848101    0.000274206934011        1109.52209108       0.232918628166       0.767081371834 
    0.00302191579534       23389.7381806        10895.4370189        7142.97653781        1853.22225657    0.000274926728658        1106.61721506       0.232918628166       0.767081371834 
    0.00311315723591       23349.8352501        11110.8558329        7284.09935913        1853.92381226    0.000275500809721        1104.31127633       0.232918628166       0.767081371834 
    0.00320527508804       23310.1415619        11325.0789549        7424.88319973        1854.62104634    0.000276073734765        1102.01954225       0.232918628166       0.767081371834 
    0.00332177070463       23260.7816613        11591.3841401        7600.52740370        1855.48717933    0.000276788773165        1099.17265550       0.232918628166       0.767081371834 
    0.00341613667786       23221.4728059        11803.3926163        7740.87743604        1856.17623869    0.000277360278913        1096.90779085       0.232918628166       0.767081371834 
    0.00351162180519       23182.3016920        12014.5892849        7881.16458046        1856.86226363    0.000277931617232        1094.65290003       0.232918628166       0.767081371834 
    0.00360829963805       23143.2501663        12225.0602144        8021.46121496        1857.54557984    0.000278503044357        1092.40691252       0.232918628166       0.767081371834 
    0.00370624412582       23104.3014466        12434.8788494        8161.83537150        1858.22648786    0.000279074799712        1090.16884049       0.232918628166       0.767081371834 
    0.00380553035119       23065.4398240        12644.1075929        8302.35181222        1858.90526837    0.000279647109998        1087.93776133       0.232918628166       0.767081371834 
    0.00390623481590       23026.6505649        12852.7982769        8443.07239472        1859.58218406    0.000280220190408        1085.71281166       0.232918628166       0.767081371834 
    0.00400843625433       22987.9196254        13060.9936075        8584.05712417        1860.25748462    0.000280794248665        1083.49317074       0.232918628166       0.767081371834 
    0.00411221588078       22949.2336041        13268.7272899        8725.36434729        1860.93140768    0.000281369485583        1081.27805751       0.232918628166       0.767081371834 
    0.00421765792037       22910.5796002        13476.0246294        8867.05129426        1861.60418131    0.000281946097050        1079.06672231       0.232918628166       0.767081371834 
    0.00432485016107       22871.9450836        13682.9030400        9009.17458813        1862.27602635    0.000282524275894        1076.85843933       0.232918628166       0.767081371834 
    0.00440644803332       22842.9745930        13837.7931668        9116.08738148        1862.77943059    0.000282959053800        1075.20380326       0.232918628166       0.767081371834 
    0.00451692704869       22804.3447558        14043.9578629        9259.11026271        1863.45016698    0.000283540435946        1072.99916429       0.232918628166       0.767081371834 
    0.00460110266819       22775.3638941        14198.3133612        9366.76306834        1863.95298249    0.000283977836514        1071.34646333       0.232918628166       0.767081371834 
    0.00471517643872       22736.7018256        14403.7560330        9510.86061298        1864.62325472    0.000284563010952        1069.14334999       0.232918628166       0.767081371834 
    0.00480217227335       22707.6829408        14557.5566069        9619.38649420        1865.12596285    0.000285003480356        1067.49100198       0.232918628166       0.767081371834 
    0.00492018129993       22668.9515342        14762.2320443        9764.73965410        1865.79641488    0.000285593052206        1065.28729765       0.232918628166       0.767081371834 
    0.00501026674073       22639.8665279        14915.4299907        9874.27743111        1866.29950177    0.000286037053425        1063.63370469       0.232918628166       0.767081371834 
    0.00510176666162       22610.7443386        15068.3483367        9984.29341211        1866.80290329    0.000286482716307        1061.97907760       0.232918628166       0.767081371834 
    0.00522606829040       22571.8474168        15271.7768498        10131.7737015        1867.47475760    0.000287079679037        1059.77076411       0.232918628166       0.767081371834 
    0.00532110131058       22542.6169441        15423.9772115        10243.0156778        1867.97926210    0.000287529584487        1058.11251164       0.232918628166       0.767081371834 
    0.00541775636925       22513.3304801        15575.8363812        10354.8327261        1868.48440299    0.000287981472517        1056.45216741       0.232918628166       0.767081371834 
    0.00551610366068       22483.9820106        15727.3309840        10467.2563253        1868.99028266    0.000288435447203        1054.78939486       0.232918628166       0.767081371834 
    0.00561621781053       22454.5652534        15878.4355751        10580.3194972        1869.49700785    0.000288891617807        1053.12384320       0.232918628166       0.767081371834 
    0.00571817801046       22425.0737084        16029.1221828        10694.0566532        1870.00468876    0.000289350098059        1051.45515019       0.232918628166       0.767081371834 
    0.00582206862877       22395.5005757        16179.3605092        10808.5039478        1870.51344045    0.000289811007499        1049.78293764       0.232918628166       0.767081371834 
    0.00592797957868       22365.8387578        16329.1176832        10923.6993177        1871.02338280    0.000290274471520        1048.10681153       0.232918628166       0.767081371834 
    0.00603600723324       22336.0807213        16478.3586935        11039.6830682        1871.53464284    0.000290740623615        1046.42635429       0.232918628166       0.767081371834 
    0.00610925204474       22316.1847373        16577.5471633        11117.4642485        1871.87627953    0.000291052953439        1045.30343093       0.232918628166       0.767081371834 
    0.00622103969355       22286.2487105        16725.8418521        11234.8569850        1872.39003230    0.000291523899946        1043.61478036       0.232918628166       0.767081371834 
    0.00633523548014       22256.1945040        16873.5129461        11353.1566013        1872.90547195    0.000291997926838        1041.92058522       0.232918628166       0.767081371834 
    0.00641276505483       22236.0882089        16971.5915921        11432.5512206        1873.25011103    0.000292315736951        1040.78779331       0.232918628166       0.767081371834 
    0.00653125640308       22205.8163726        17118.1209808        11552.4742853        1873.76870851    0.000292795269273        1039.08321869       0.232918628166       0.767081371834 
    0.00661177647376       22185.5558264        17215.3929858        11633.0009627        1874.11560624    0.000293116914881        1037.94300283       0.232918628166       0.767081371834 
    0.00673495745444       22155.0380502        17360.6401620        11754.7013015        1874.63783525    0.000293602463580        1036.22649178       0.232918628166       0.767081371834 
    0.00681874861609       22134.6033165        17457.0067509        11836.4685051        1874.98732489    0.000293928305258        1035.07775662       0.232918628166       0.767081371834 
    0.00690393584389       22114.0927703        17552.9812079        11918.7653346        1875.33795373    0.000294255936655        1033.92527699       0.232918628166       0.767081371834 
    0.00703445406485       22083.1765713        17696.1672775        12043.2485789        1875.86617026    0.000294750889206        1032.18908561       0.232918628166       0.767081371834 
    0.00712337661791       22062.4596563        17791.0796359        12126.9613595        1876.21992780    0.000295083301207        1031.02632229       0.232918628166       0.767081371834 
    0.00721390058169       22041.6528900        17885.5324936        12211.2803540        1876.57505848    0.000295417758481        1029.85904563       0.232918628166       0.767081371834 
    0.00730609295470       22020.7517822        17979.5046556        12296.2300969        1876.93163700    0.000295754342999        1028.68701006       0.232918628166       0.767081371834 
    0.00740002508858       21999.7515839        18072.9740447        12381.8365309        1877.28974235    0.000296093141527        1027.50995597       0.232918628166       0.767081371834 
    0.00754435341992       21968.0543608        18212.1850435        12511.5382055        1877.82994823    0.000296605694043        1025.73435683       0.232918628166       0.767081371834 
    0.00764297959846       21946.7837047        18304.2949308        12598.9104266        1878.19224848    0.000296950443291        1024.54351454       0.232918628166       0.767081371834 
    0.00774363564957       21925.3949592        18395.8171363        12687.0430588        1878.55639123    0.000297297754259        1023.34661616       0.232918628166       0.767081371834 
    0.00784641797481       21903.8819245        18486.7248922        12775.9699505        1878.92247938    0.000297647740619        1022.14332345       0.232918628166       0.767081371834 
    0.00795142991469       21882.2380337        18576.9900487        12865.7269973        1879.29062189    0.000298000522933        1020.93327830       0.232918628166       0.767081371834 
    0.00800480642402       21871.3648414        18621.8725178        12910.9287140        1879.47549961    0.000298178002532        1020.32560494       0.232918628166       0.767081371834 
    0.00811337413574       21849.5113292        18711.1183039        13002.0038086        1879.84694484    0.000298535223704        1019.10470409       0.232918628166       0.767081371834 
    0.00822446607185       21827.5084846        18799.6453298        13094.0099542        1880.22075077    0.000298895580314        1017.87604384       0.232918628166       0.767081371834 
    0.00833821674656       21805.3480118        18887.4203936        13186.9924624        1880.59705488    0.000299259224982        1016.63917238       0.232918628166       0.767081371834 
    0.00845477157242       21783.0210609        18974.4083897        13280.9997300        1880.97600374    0.000299626320720        1015.39360788       0.232918628166       0.767081371834 
    0.00851414939233       21771.7922002        19017.5958058        13328.4037970        1881.16651891    0.000299811217192        1014.76740484       0.232918628166       0.767081371834 
    0.00863521073325       21749.1974447        19103.3333694        13424.0470629        1881.54973440    0.000300183822849        1013.50781639       0.232918628166       0.767081371834 
    0.00875949702645       21726.4110670        19188.1874942        13520.8525897        1881.93601089    0.000300560343210        1012.23816676       0.232918628166       0.767081371834 
    0.00882290975421       21714.9425015        19230.2699921        13569.7104764        1882.13035522    0.000300750136393        1011.59937768       0.232918628166       0.767081371834 
    0.00895240453669       21691.8470952        19313.7178920        13668.3777176        1882.52158045    0.000301132927785        1010.31346207       0.232918628166       0.767081371834 
    0.00901854228455       21680.2170710        19355.0715611        13718.2045302        1882.71851399    0.000301325984872        1009.66616252       0.232918628166       0.767081371834 
    0.00915374722773       21656.7840309        19437.0072440        13818.8904634        1883.11516092    0.000301715576525        1008.36242635       0.232918628166       0.767081371834 
    0.00922287829587       21644.9774638        19477.5762177        13869.7691158        1883.31493300    0.000301912176909        1007.70579685       0.232918628166       0.767081371834 
    0.00936436888626       21621.1748741        19557.8818925        13972.6494102        1883.71752898    0.000302309160544        1006.38250679       0.232918628166       0.767081371834 
    0.00943680188874       21609.1749095        19597.6039090        14024.6728447        1883.92041798    0.000302509617079        1005.71563229       0.232918628166       0.767081371834 
    0.00951041210401       21597.1064079        19637.0284438        14077.1004011        1884.12441315    0.000302711434723        1005.04512190       0.232918628166       0.767081371834 
    0.00966133171481       21572.7551593        19714.9519811        14183.2159302        1884.53586446    0.000303119314440        1003.69272534       0.232918628166       0.767081371834 
    0.00973873023590       21560.4678987        19753.4335326        14236.9290813        1884.74339501    0.000303325460833        1003.01059455       0.232918628166       0.767081371834 
    0.00981748441251       21548.1030818        19791.5826153        14291.0966931        1884.95218044    0.000303533136877        1002.32433909       0.232918628166       0.767081371834 
    0.00997926290994       21523.1310880        19866.8432085        14400.8500064        1885.37367551    0.000303953260050        1000.93892976       0.232918628166       0.767081371834 
     0.0100623954640       21510.5188683        19903.9334307        14456.4642865        1885.58646812    0.000304165802145        1000.23950315       0.232918628166       0.767081371834 
     0.0101470998561       21497.8190959        19940.6482826        14512.5898049        1885.80068006    0.000304380062334        999.535411353       0.232918628166       0.767081371834 
     0.0102334367650       21485.0291688        19976.9754433        14569.2415907        1886.01635405    0.000304596090075        998.826513952       0.232918628166       0.767081371834 
     0.0103214696151       21472.1464775        20012.9018087        14626.4348678        1886.23353287    0.000304813935202        998.112670310       0.232918628166       0.767081371834 
