# example-2.data
# Columns:
# 1: x (m)
# 2: T[0] (K)
# 3: T[1] (K)
# 4: T[2] (K)
# 5: p (Pa)
# 6: rho (kg/m^3)
# 7: u (m/s)
# 8: massf[0]-O2
# 9: massf[1]-N2
       0.00000000000       25105.5981607        205.000000000        205.000000000        1822.41498754    0.000251878746166        1207.87742294       0.232918628166       0.767081371834 
   0.000100207155907       25034.2820236        1257.65531146        1212.70717379        1823.72136686    0.000252777354019        1203.58349344       0.232918628166       0.767081371834 
   0.000279960061470       24909.0670874        2155.25163958        1803.87653441        1826.00942456    0.000254366766918        1196.06289178       0.232918628166       0.767081371834 
   0.000399725417209       24827.5408624        2683.31841125        2130.95602955        1827.49531533    0.000255409698610        1191.17892730       0.232918628166       0.767081371834 
   0.000562788742838       24718.9214115        3355.68843254        2541.13275869        1829.47033494    0.000256809255955        1184.68724845       0.232918628166       0.767081371834 
   0.000746581774245       24599.6689511        4065.36291526        2974.58872775        1831.63259600    0.000258359192596        1177.58012694       0.232918628166       0.767081371834 
   0.000942403509668       24476.2088863        4775.02933569        3414.20165937        1833.86448235    0.000259978782751        1170.24415452       0.232918628166       0.767081371834 
    0.00114830595465       24350.2856054        5476.10548319        3858.20510047        1836.13397505    0.000261646617609        1162.78457407       0.232918628166       0.767081371834 
    0.00120280499030       24317.5565485        5655.04674045        3973.23567189        1836.72270806    0.000262082774985        1160.84947143       0.232918628166       0.767081371834 
    0.00125030237861       24289.2505696        5808.72801909        4072.67395946        1837.23150183    0.000262460883163        1159.17712059       0.232918628166       0.767081371834 
    0.00129750300476       24261.3232092        5959.39493521        4170.76320610        1837.73314845    0.000262834749610        1157.52826163       0.232918628166       0.767081371834 
    0.00133994176043       24236.3828242        6093.16601401        4258.35958807        1838.18085518    0.000263169316440        1156.05669737       0.232918628166       0.767081371834 
    0.00137397267354       24216.4979940        6199.30769499        4328.20622507        1838.53761612    0.000263436530793        1154.88406219       0.232918628166       0.767081371834 
    0.00140198432641       24200.2065153        6285.93557033        4385.43980150        1838.82977993    0.000263655766313        1153.92375091       0.232918628166       0.767081371834 
    0.00142784957646       24185.2246859        6365.33764750        4438.08257779        1839.09835585    0.000263857623965        1153.04097051       0.232918628166       0.767081371834 
    0.00150176771926       24142.7330670        6589.20288438        4587.46134970        1839.85956685    0.000264431421911        1150.53895114       0.232918628166       0.767081371834 
    0.00162111598487       24075.1289115        6941.46727026        4825.43365453        1841.06905266    0.000265348278356        1146.56350023       0.232918628166       0.767081371834 
    0.00171415686833       24023.2739361        7208.59583263        5008.30942198        1841.99544754    0.000266054847754        1143.51853906       0.232918628166       0.767081371834 
    0.00180541127729       23973.1254311        7464.54665992        5185.51127342        1842.89026473    0.000266740914481        1140.57737039       0.232918628166       0.767081371834 
    0.00191757473400       23912.4370188        7771.33300894        5400.47590808        1843.97171954    0.000267574815438        1137.02274377       0.232918628166       0.767081371834 
    0.00200621983682       23865.2048577        8007.98020788        5568.21391958        1844.81230748    0.000268226596080        1134.25982083       0.232918628166       0.767081371834 
    0.00211615979205       23807.5095017        8294.68403316        5773.67622018        1845.83783151    0.000269026086560        1130.88903274       0.232918628166       0.767081371834 
    0.00220371777873       23762.2497169        8517.86492735        5935.31803948        1846.64133634    0.000269655830404        1128.24799804       0.232918628166       0.767081371834 
    0.00231300604089       23706.6024319        8790.29713857        6134.65083266        1847.62807662    0.000270433229363        1125.00468796       0.232918628166       0.767081371834 
    0.00240051728729       23662.7106125        9003.71654486        6292.35697933        1848.40545683    0.000271048848808        1122.44952211       0.232918628166       0.767081371834 
    0.00251024712988       23608.5004719        9265.61185247        6487.74928505        1849.36448205    0.000271812188325        1119.29730851       0.232918628166       0.767081371834 
    0.00262058667589       23554.9011451        9522.79242055        6681.62867781        1850.31150433    0.000272570204953        1116.18454726       0.232918628166       0.767081371834 
    0.00270944551642       23512.3909793        9725.56618280        6835.89866509        1851.06175382    0.000273173728537        1113.71855720       0.232918628166       0.767081371834 
    0.00282142003395       23459.6408328        9975.76054338        7027.96462756        1851.99169199    0.000273925518852        1110.66194960       0.232918628166       0.767081371834 
    0.00291183479859       23417.7035951        10173.5743878        7181.17357889        1852.73019391    0.000274525500601        1108.23457255       0.232918628166       0.767081371834 
    0.00300308758411       23375.9633983        10369.5178487        7334.12367920        1853.46451204    0.000275124695000        1105.82094716       0.232918628166       0.767081371834 
    0.00311845991778       23324.0202225        10612.0703531        7525.11550725        1854.37733540    0.000275873204064        1102.82059414       0.232918628166       0.767081371834 
    0.00321190168695       23282.6193410        10804.3860770        7677.87302221        1855.10410873    0.000276472071914        1100.43176769       0.232918628166       0.767081371834 
    0.00330644585352       23241.3296744        10995.3016476        7830.69530417        1855.82823834    0.000277071352799        1098.05163089       0.232918628166       0.767081371834 
    0.00340217038412       23200.1301068        11184.9243286        7983.66379395        1856.55010157    0.000277671349468        1095.67894345       0.232918628166       0.767081371834 
    0.00352360452314       23148.7280131        11420.2763297        8175.19458794        1857.44976644    0.000278422778249        1092.72184096       0.232918628166       0.767081371834 
    0.00362226951884       23107.6629239        11607.3138942        8328.75978811        1858.16774590    0.000279025381850        1090.36191903       0.232918628166       0.767081371834 
    0.00372236906418       23066.6306445        11793.3198315        8482.69804348        1858.88447774    0.000279629545639        1088.00609792       0.232918628166       0.767081371834 
    0.00382398359517       23025.6162009        11978.3524823        8637.07055450        1859.60022665    0.000280235497507        1085.65350757       0.232918628166       0.767081371834 
    0.00390123801928       22994.8586520        12116.5182187        8753.16988015        1860.13654174    0.000280691264933        1083.89069708       0.232918628166       0.767081371834 
    0.00400570304102       22953.8422491        12299.9619729        8908.44073714        1860.85115470    0.000281300860885        1081.54184049       0.232918628166       0.767081371834 
    0.00411191520160       22912.8070516        12482.5501137        9064.30028870        1861.56542851    0.000281912819202        1079.19409864       0.232918628166       0.767081371834 
    0.00421996449626       22871.7409463        12664.3122208        9220.80135611        1862.27957468    0.000282527335830        1076.84677633       0.232918628166       0.767081371834 
    0.00430226317736       22840.9141230        12800.1057677        9338.62907126        1862.81522167    0.000282990016637        1075.08616180       0.232918628166       0.767081371834 
    0.00441375499398       22799.7663752        12980.4742033        9496.37589212        1863.52962338    0.000283609465620        1072.73799959       0.232918628166       0.767081371834 
    0.00452735167067       22758.5568304        13160.0663311        9654.90385074        1864.24443307    0.000284231988523        1070.38849636       0.232918628166       0.767081371834 
    0.00461399423365       22727.6027323        13294.2558355        9774.34236426        1864.78091803    0.000284701007846        1068.62512751       0.232918628166       0.767081371834 
    0.00470192741115       22696.6035091        13428.0146026        9894.26922790        1865.31781065    0.000285171935781        1066.86041871       0.232918628166       0.767081371834 
    0.00482126396747       22655.1935616        13605.6891019        10054.9675569        1866.03442912    0.000285802940632        1064.50497024       0.232918628166       0.767081371834 
    0.00491240222239       22624.0722990        13738.4397973        10176.1155994        1866.57255905    0.000286278619638        1062.73619454       0.232918628166       0.767081371834 
    0.00500500254884       22592.8915918        13870.7539061        10297.8225339        1867.11134076    0.000286756463707        1060.96527653       0.232918628166       0.767081371834 
    0.00513084223879       22551.2174890        14046.4851977        10461.0052453        1867.83085485    0.000287397092000        1058.60031045       0.232918628166       0.767081371834 
    0.00522707895881       22519.8815358        14177.7598272        10584.1008135        1868.37143724    0.000287880292562        1056.82347376       0.232918628166       0.767081371834 
    0.00532497744779       22488.4719310        14308.5769713        10707.8285985        1868.91291131    0.000288365921728        1055.04370624       0.232918628166       0.767081371834 
    0.00542460425274       22456.9843788        14438.9275817        10832.2114193        1869.45534916    0.000288854060857        1053.26077089       0.232918628166       0.767081371834 
    0.00552602935429       22425.4145696        14568.8012925        10957.2724909        1869.99882292    0.000289344792383        1051.47443058       0.232918628166       0.767081371834 
    0.00562932672209       22393.7580836        14698.1867940        11083.0358192        1870.54340643    0.000289838201320        1049.68444266       0.232918628166       0.767081371834 
    0.00573457414133       22362.0105285        14827.0712455        11209.5256709        1871.08917284    0.000290334373154        1047.89056668       0.232918628166       0.767081371834 
    0.00580586295093       22340.7926683        14912.7091069        11294.2682602        1871.45371134    0.000290666732894        1046.69236752       0.232918628166       0.767081371834 
    0.00591454589750       22308.8832563        15040.7273000        11422.0252132        1872.00161659    0.000291167706945        1044.89146137       0.232918628166       0.767081371834 
    0.00602540935423       22276.8705787        15168.2050624        11550.5772539        1872.55090705    0.000291671683994        1043.08600220       0.232918628166       0.767081371834 
    0.00610057691176       22255.4690863        15252.8817342        11636.7337066        1872.91790888    0.000292009383580        1041.87970634       0.232918628166       0.767081371834 
    0.00621529084828       22223.2737251        15379.4207716        11766.6716138        1873.46968263    0.000292518576689        1040.06608488       0.232918628166       0.767081371834 
    0.00633245475083       22190.9622472        15505.3718996        11897.4788708        1874.02305351    0.000293031030342        1038.24721381       0.232918628166       0.767081371834 
    0.00641198064705       22169.3542646        15589.0029854        11985.1812775        1874.39289562    0.000293374527863        1037.03158222       0.232918628166       0.767081371834 
    0.00653348252267       22136.8380274        15713.9295900        12117.5036204        1874.94911287    0.000293892643613        1035.20335546       0.232918628166       0.767081371834 
    0.00661601347508       22115.0887478        15796.8579838        12206.2445794        1875.32093109    0.000294240013640        1033.98122862       0.232918628166       0.767081371834 
    0.00674220269690       22082.3531978        15920.6997098        12340.1688886        1875.88023306    0.000294764089174        1032.14286267       0.232918628166       0.767081371834 
    0.00682798472504       22060.4526960        16002.8834815        12430.0080668        1876.25418971    0.000295115535599        1030.91370705       0.232918628166       0.767081371834 
    0.00691514242085       22038.4888389        16084.7568349        12520.3039901        1876.62904849    0.000295468671949        1029.68158623       0.232918628166       0.767081371834 
    0.00700372185324       22016.4599342        16166.3122851        12611.0670350        1877.00483696    0.000295823533413        1028.44640960       0.232918628166       0.767081371834 
    0.00713936302875       21983.2908240        16288.0324947        12748.1108173        1877.57032448    0.000296359139250        1026.58771240       0.232918628166       0.767081371834 
    0.00723171319830       21961.0916791        16368.7589830        12840.0887796        1877.94856112    0.000296718472765        1025.34448893       0.232918628166       0.767081371834 
    0.00732566468687       21938.8213007        16449.1396159        12932.5722654        1878.32782795    0.000297079661001        1024.09787929       0.232918628166       0.767081371834 
    0.00742127455257       21916.4778732        16529.1657928        13025.5727478        1878.70815438    0.000297442742428        1022.84778687       0.232918628166       0.767081371834 
    0.00751860285992       21894.0595267        16608.8287532        13119.1020672        1879.08957068    0.000297807756707        1021.59411218       0.232918628166       0.767081371834 
    0.00761771293139       21871.5643258        16688.1196104        13213.1724839        1879.47210815    0.000298174744885        1020.33675230       0.232918628166       0.767081371834 
    0.00771867108109       21848.9903782        16767.0289662        13307.7962292        1879.85579732    0.000298543747636        1019.07560692       0.232918628166       0.767081371834 
    0.00782154732968       21826.3357229        16845.5473050        13402.9859761        1880.24066980    0.000298914807086        1017.81057211       0.232918628166       0.767081371834 
    0.00792641543332       21803.5983806        16923.6648150        13498.7546334        1880.62675746    0.000299287966006        1016.54154316       0.232918628166       0.767081371834 
    0.00803335323748       21780.7763355        17001.3714516        13595.1154283        1881.01409271    0.000299663268120        1015.26841351       0.232918628166       0.767081371834 
    0.00814244285864       21757.8675596        17078.6568545        13692.0818075        1881.40270809    0.000300040757711        1013.99107619       0.232918628166       0.767081371834 
    0.00825377091491       21734.8700305        17155.5102924        13789.6673662        1881.79263600    0.000300420479339        1012.70942474       0.232918628166       0.767081371834 
    0.00831030286369       21723.3373276        17193.7716556        13838.6967362        1881.98810265    0.000300611191590        1012.06694669       0.232918628166       0.767081371834 
    0.00842516218575       21700.2027873        17269.9565650        13937.2373232        1882.38006143    0.000300994347124        1010.77862000       0.232918628166       0.767081371834 
    0.00854249889700       21676.9743872        17345.6813483        14036.4320741        1882.77341423    0.000301379848584        1009.48571128       0.232918628166       0.767081371834 
    0.00860212905057       21665.3243418        17383.3675358        14086.2792684        1882.97062371    0.000301573493628        1008.83750476       0.232918628166       0.767081371834 
    0.00872338167845       21641.9513144        17458.3798543        14186.4822008        1883.36612856    0.000301962600921        1007.53752248       0.232918628166       0.767081371834 
    0.00884738735857       21618.4793571        17532.9017428        14287.3752877        1883.76310789    0.000302354169860        1006.23269378       0.232918628166       0.767081371834 
    0.00891046022574       21606.7057011        17569.9746616        14338.0849970        1883.96215956    0.000302550891196        1005.57843215       0.232918628166       0.767081371834 
    0.00903882568524       21583.0818310        17643.7362285        14440.0397747        1884.36140586    0.000302946236072        1004.26615216       0.232918628166       0.767081371834 
    0.00910415145992       21571.2311724        17680.4214249        14491.2883275        1884.56160740    0.000303144870461        1003.60811103       0.232918628166       0.767081371834 
    0.00923717577256       21547.4513558        17753.3917362        14594.3363116        1884.96318360    0.000303544089452        1002.28817290       0.232918628166       0.767081371834 
    0.00930491057671       21535.5217964        17789.6731935        14646.1391135        1885.16456443    0.000303744684320        1001.62625560       0.232918628166       0.767081371834 
    0.00944292043217       21511.5824195        17861.8193492        14750.3106445        1885.56852616    0.000304147869833        1000.29847646       0.232918628166       0.767081371834 
    0.00951323515356       21499.5722614        17897.6801545        14802.6825502        1885.77111219    0.000304350469856        999.632597764       0.232918628166       0.767081371834 
    0.00965658747564       21475.4703271        17968.9669397        14908.0059116        1886.17750450    0.000304757705115        998.296829601       0.232918628166       0.767081371834 
    0.00972966837817       21463.3783101        18004.3887136        14960.9601726        1886.38131420    0.000304962348161        997.626928856       0.232918628166       0.767081371834 
    0.00980371569919       21451.2588025        18039.6598346        15014.1112151        1886.58553460    0.000305167679440        996.955678174       0.232918628166       0.767081371834 
    0.00995480333462       21426.9370869        18109.7410106        15121.0082501        1886.99521008    0.000305580418200        995.609118559       0.232918628166       0.767081371834 
     0.0100318922442       21414.7348308        18144.5463484        15174.7562778        1887.20066533    0.000305787830350        994.933809056       0.232918628166       0.767081371834 
     0.0101100447724       21402.5049961        18179.1915820        15228.7051170        1887.40653149    0.000305995939918        994.257148949       0.232918628166       0.767081371834 
     0.0102696456310       21377.9628690        18247.9914298        15337.2077262        1887.81949056    0.000306414254372        992.899796507       0.232918628166       0.767081371834 
     0.0103511482362       21365.6508209        18282.1406613        15391.7622912        1888.02657874    0.000306624459003        992.219119771       0.232918628166       0.767081371834 
