# example-1.data
# Columns:
# 1: x (m)
# 2: T[0] (K)
# 3: T[1] (K)
# 4: T[2] (K)
# 5: p (Pa)
# 6: rho (kg/m^3)
# 7: u (m/s)
# 8: massf[0]-O2
# 9: massf[1]-N2
       0.00000000000       25105.5981607        205.000000000        205.000000000        1822.41498754    0.000251878746166        1207.87742294       0.232918628166       0.767081371834 
   1.00000000000e-06       25104.8810536        365.751409037        462.390696630        1822.42813529    0.000251887758165        1207.83420770       0.232918628166       0.767081371834 
   0.000104057837945       25031.5983162        1280.83100128        1227.38762940        1823.77048169    0.000252811263286        1203.42205825       0.232918628166       0.767081371834 
   0.000205994453363       24960.3086652        1812.04554361        1580.37705440        1825.07395184    0.000253714525975        1199.13769085       0.232918628166       0.767081371834 
   0.000423650324804       24812.0014895        2800.77994038        2185.06685214        1827.77819290    0.000255609217323        1190.24913889       0.232918628166       0.767081371834 
   0.000613724390634       24686.7328013        3587.99433400        2648.17799847        1830.05459887    0.000257226227310        1182.76683523       0.232918628166       0.767081371834 
   0.000825191864417       24551.7900869        4408.40995798        3127.22301778        1832.49894226    0.000258985463215        1174.73253918       0.232918628166       0.767081371834 
    0.00104881548210       24413.9917274        5223.54755274        3605.98109418        1834.98668091    0.000260800812963        1166.55560754       0.232918628166       0.767081371834 
    0.00115400474681       24350.7880827        5591.10437742        3823.59504443        1836.12493280    0.000261639930063        1162.81429497       0.232918628166       0.767081371834 
    0.00121669499950       24313.6106422        5805.60618124        3951.24475721        1836.79365579    0.000262135434148        1160.61627380       0.232918628166       0.767081371834 
    0.00126920993069       24282.7526958        5982.72560387        4057.05386658        1837.34825047    0.000262547798426        1158.79338024       0.232918628166       0.767081371834 
    0.00131267969690       24257.4047525        6127.62052316        4143.89462441        1837.80350683    0.000262887271384        1157.29700115       0.232918628166       0.767081371834 
    0.00134836783293       24236.7255519        6245.44317338        4214.70119010        1838.17470467    0.000263164714459        1156.07691342       0.232918628166       0.767081371834 
    0.00137810603060       24219.5839214        6342.85605115        4273.37388517        1838.48226160    0.000263395034635        1155.06600659       0.232918628166       0.767081371834 
    0.00140569737480       24203.7530213        6432.61991930        4327.54728914        1838.76618831    0.000263608017014        1154.13276978       0.232918628166       0.767081371834 
    0.00143237975105       24188.5105919        6518.86937657        4379.69819748        1839.03945844    0.000263813331100        1153.23456000       0.232918628166       0.767081371834 
    0.00151008774697       24144.4923927        6767.00710421        4530.27809161        1839.82806505    0.000264407626482        1150.64249417       0.232918628166       0.767081371834 
    0.00161007931584       24088.6598713        7079.86693250        4721.28649605        1840.82713128    0.000265164380382        1147.35867002       0.232918628166       0.767081371834 
    0.00170656720215       24035.6340451        7375.23638625        4902.78977480        1841.77473714    0.000265886168775        1144.24399063       0.232918628166       0.767081371834 
    0.00180028758062       23984.9167418        7656.30920538        5076.54904823        1842.67996457    0.000266579357034        1141.26860458       0.232918628166       0.767081371834 
    0.00191459274848       23924.0938370        7991.75246386        5285.21571056        1843.76411867    0.000267414331965        1137.70510569       0.232918628166       0.767081371834 
    0.00200442073719       23877.0803948        8249.96589924        5446.77170190        1844.60104796    0.000268062489722        1134.95420836       0.232918628166       0.767081371834 
    0.00211535673068       23819.9571217        8562.62683553        5643.43875360        1845.61669594    0.000268853288222        1131.61588175       0.232918628166       0.767081371834 
    0.00220340741848       23775.3441591        8806.10362523        5797.35324224        1846.40895676    0.000269473400968        1129.01180495       0.232918628166       0.767081371834 
    0.00231300122911       23720.6987996        9103.61707684        5986.30240702        1847.37824155    0.000270235974437        1125.82586921       0.232918628166       0.767081371834 
    0.00240054178350       23677.7422078        9337.02429584        6135.18948619        1848.13931841    0.000270837774385        1123.32429073       0.232918628166       0.767081371834 
    0.00251006834523       23624.8488790        9623.95759570        6318.97916144        1849.07539274    0.000271581634372        1120.24751422       0.232918628166       0.767081371834 
    0.00261995834087       23572.7158029        9906.35750820        6500.65937900        1849.99687698    0.000272317902035        1117.21869381       0.232918628166       0.767081371834 
    0.00270828920776       23531.4786936        10129.5045046        6644.76419797        1850.72497246    0.000272902481070        1114.82552163       0.232918628166       0.767081371834 
    0.00281939951365       23480.4381857        10405.4775958        6823.63766699        1851.62518962    0.000273628733676        1111.86660379       0.232918628166       0.767081371834 
    0.00290896144151       23439.9596298        10624.2025289        6965.91548118        1852.33836162    0.000274206837031        1109.52248349       0.232918628166       0.767081371834 
    0.00302190054768       23389.7448804        10895.4009058        7142.95286187        1853.22213873    0.000274926632426        1106.61760240       0.232918628166       0.767081371834 
    0.00311314180892       23349.8419296        11110.8198402        7284.07568827        1853.92369488    0.000275500713468        1104.31166215       0.232918628166       0.767081371834 
    0.00320525952169       23310.1482024        11325.0431827        7424.85959942        1854.62092975    0.000276073638763        1102.01992547       0.232918628166       0.767081371834 
    0.00332175505509       23260.7882131        11591.3488583        7600.50403268        1855.48706443    0.000276788678063        1099.17303316       0.232918628166       0.767081371834 
    0.00341612078984       23221.4793573        11803.3573464        7740.85399558        1856.17612390    0.000277360183509        1096.90816816       0.232918628166       0.767081371834 
    0.00351160566559       23182.3082459        12014.5540136        7881.14105892        1856.86214890    0.000277931521485        1094.65327713       0.232918628166       0.767081371834 
    0.00360828323577       23143.2567244        12225.0249352        8021.43760449        1857.54546514    0.000278502948241        1092.40728952       0.232918628166       0.767081371834 
    0.00370622742112       23104.3080216        12434.8434969        8161.81162422        1858.22637296    0.000279074703039        1090.16921813       0.232918628166       0.767081371834 
    0.00380551334122       23065.4464135        12644.0721839        8302.32793436        1858.90515333    0.000279647012799        1087.93813947       0.232918628166       0.767081371834 
    0.00390621756352       23026.6571415        12852.7629646        8443.04848402        1859.58206934    0.000280220093088        1085.71318873       0.232918628166       0.767081371834 
    0.00400841872609       22987.9261990        13060.9583449        8584.03314318        1860.25737005    0.000280794151078        1083.49354730       0.232918628166       0.767081371834 
    0.00411219800868       22949.2401966        13268.6919661        8725.34021377        1860.93129288    0.000281369387399        1081.27843482       0.232918628166       0.767081371834 
    0.00421763967104       22910.5862198        13475.9892090        8867.02697592        1861.60406615    0.000281945998145        1079.06710084       0.232918628166       0.767081371834 
    0.00432483160505       22871.9517006        13682.8676911        9009.15019148        1862.27591133    0.000282524176709        1076.85881738       0.232918628166       0.767081371834 
    0.00440642919255       22842.9812250        13837.7577873        9116.06286211        1862.77931539    0.000282958954148        1075.20418192       0.232918628166       0.767081371834 
    0.00451690786149       22804.3513925        14043.9225351        9259.08563469        1863.45005180    0.000283540335901        1072.99954289       0.232918628166       0.767081371834 
    0.00460108324774       22775.3705225        14198.2781427        9366.73840111        1863.95286753    0.000283977736351        1071.34684121       0.232918628166       0.767081371834 
    0.00471515667720       22736.7084498        14403.7209345        9510.83586607        1864.62313993    0.000284562910527        1069.14372730       0.232918628166       0.767081371834 
    0.00480215223442       22707.6895664        14557.5215837        9619.36166927        1865.12584811    0.000285003379665        1067.49137912       0.232918628166       0.767081371834 
    0.00492016097193       22668.9581315        14762.1972935        9764.71483637        1865.79630073    0.000285592951618        1065.28767286       0.232918628166       0.767081371834 
    0.00501024620615       22639.8730984        14915.3954831        9874.25263867        1866.29938816    0.000286036952999        1063.63407813       0.232918628166       0.767081371834 
    0.00510174585109       22610.7509025        15068.3139757        9984.26856830        1866.80278986    0.000286482615736        1061.97945041       0.232918628166       0.767081371834 
    0.00522604704379       22571.8539888        15271.7426099        10131.7487218        1867.47464414    0.000287079578007        1059.77113706       0.232918628166       0.767081371834 
    0.00532107968556       22542.6235346        15423.9430118        10242.9905477        1867.97914839    0.000287529482923        1058.11288540       0.232918628166       0.767081371834 
    0.00541773429485       22513.3371068        15575.8021415        10354.8073754        1868.48428873    0.000287981370140        1056.45254297       0.232918628166       0.767081371834 
    0.00551608125446       22483.9886346        15727.2969185        10467.2309009        1868.99016852    0.000288435344613        1054.78977003       0.232918628166       0.767081371834 
    0.00561619500339       22454.5718918        15878.4016091        10580.2939318        1869.49689354    0.000288891514736        1053.12421893       0.232918628166       0.767081371834 
    0.00571815473305       22425.0803773        16029.0882478        10694.0308822        1870.00457400    0.000289349994254        1051.45552741       0.232918628166       0.767081371834 
    0.00582204488900       22395.5072685        16179.3266547        10808.4779942        1870.51332535    0.000289810903058        1049.78331596       0.232918628166       0.767081371834 
    0.00592795546517       22365.8454455        16329.0840710        10923.6732916        1871.02326786    0.000290274366893        1048.10718931       0.232918628166       0.767081371834 
    0.00603598255633       22336.0874522        16478.3250976        11039.6567795        1871.53452724    0.000290740518042        1046.42673426       0.232918628166       0.767081371834 
    0.00610922707998       22316.1914704        16577.5137215        11117.4378872        1871.87616394    0.000291052847653        1045.30381086       0.232918628166       0.767081371834 
    0.00622101422360       22286.2554628        16725.8085765        11234.8304499        1872.38991646    0.000291523793584        1043.61516112       0.232918628166       0.767081371834 
    0.00633520943851       22256.2012881        16873.4797948        11353.1298403        1872.90535564    0.000291997819698        1041.92096752       0.232918628166       0.767081371834 
    0.00641273861593       22236.0950153        16971.5585300        11432.5243028        1873.24999438    0.000292315629272        1040.78817670       0.232918628166       0.767081371834 
    0.00653122929209       22205.8232270        17118.0880011        11552.4470719        1873.76859113    0.000292795160552        1039.08360452       0.232918628166       0.767081371834 
    0.00661174896480       22185.5626966        17215.3601518        11632.9736143        1874.11548864    0.000293116805718        1037.94338938       0.232918628166       0.767081371834 
    0.00673492924544       22155.0449647        17360.6074692        11754.6736661        1874.63771697    0.000293602353424        1036.22688056       0.232918628166       0.767081371834 
    0.00681871996585       22134.6102504        17456.9742136        11836.4407160        1874.98720632    0.000293928194595        1035.07814632       0.232918628166       0.767081371834 
    0.00690390669941       22114.0997334        17552.9487921        11918.7373509        1875.33783472    0.000294255825328        1033.92566816       0.232918628166       0.767081371834 
    0.00703442421806       22083.1835631        17696.1351377        12043.2203612        1875.86605084    0.000294750777120        1032.18947813       0.232918628166       0.767081371834 
    0.00712334623948       22062.4666780        17791.0476464        12126.9329400        1876.21980793    0.000295083188439        1031.02671630       0.232918628166       0.767081371834 
    0.00721386961859       22041.6599502        17885.5006295        12211.2516959        1876.57493800    0.000295417644890        1029.85944163       0.232918628166       0.767081371834 
    0.00730606140749       22020.7588768        17979.4729497        12296.2012141        1876.93151599    0.000295754228646        1028.68740780       0.232918628166       0.767081371834 
    0.00744763490309       21989.2198655        18119.4818127        12424.8654940        1877.46927251    0.000296263284818        1026.91985947       0.232918628166       0.767081371834 
    0.00754432058193       21968.0614874        18212.1540359        12511.5089726        1877.82982682    0.000296605578645        1025.73475591       0.232918628166       0.767081371834 
    0.00764294619987       21946.7908473        18304.2642131        12598.8810370        1878.19212685    0.000296950327418        1024.54391433       0.232918628166       0.767081371834 
    0.00774360158798       21925.4021355        18395.7866482        12687.0134373        1878.55626908    0.000297297637620        1023.34701765       0.232918628166       0.767081371834 
    0.00784638317575       21903.8891455        18486.6946056        12775.9400495        1878.92235653    0.000297647623034        1022.14372724       0.232918628166       0.767081371834 
    0.00795139443487       21882.2452825        18576.9600520        12865.6968832        1879.29049862    0.000298000404670        1020.93368346       0.232918628166       0.767081371834 
    0.00800477058847       21871.3721054        18621.8426674        12910.8984869        1879.47537611    0.000298177883906        1020.32601086       0.232918628166       0.767081371834 
    0.00811333749081       21849.5186395        18711.0886960        13001.9732876        1879.84682061    0.000298535104093        1019.10511240       0.232918628166       0.767081371834 
    0.00822442867165       21827.5158248        18799.6160510        13093.9792044        1880.22062610    0.000298895459981        1017.87645363       0.232918628166       0.767081371834 
    0.00833817848003       21805.3553980        18887.3914009        13186.9614135        1880.59692948    0.000299259103659        1016.63958454       0.232918628166       0.767081371834 
    0.00845473249032       21783.0284771        18974.3797672        13280.9684455        1880.97587790    0.000299626198664        1015.39402151       0.232918628166       0.767081371834 
    0.00851410987660       21771.7996341        19017.5673663        13328.3723824        1881.16639280    0.000299811094723        1014.76781936       0.232918628166       0.767081371834 
    0.00863517025141       21749.2049274        19103.3052620        13424.0153281        1881.54960752    0.000300183699331        1013.50823343       0.232918628166       0.767081371834 
    0.00875945543990       21726.4186166        19188.1596776        13520.8204540        1881.93588294    0.000300560218337        1012.23858732       0.232918628166       0.767081371834 
    0.00882286758542       21714.9500868        19230.2423233        13569.6781285        1882.13022670    0.000300750010801        1011.59980012       0.232918628166       0.767081371834 
    0.00895236115289       21691.8547544        19313.6905325        13668.3449310        1882.52145074    0.000301132800708        1010.31388841       0.232918628166       0.767081371834 
    0.00901849819936       21680.2247803        19355.0443221        13718.1714665        1882.71838346    0.000301325856833        1009.66659154       0.232918628166       0.767081371834 
    0.00915370180837       21656.7918206        19436.9803411        13818.8569249        1883.11502910    0.000301715446881        1008.36285963       0.232918628166       0.767081371834 
    0.00922283220374       21644.9852909        19477.5495054        13869.7353500        1883.31480058    0.000301912046507        1007.70623211       0.232918628166       0.767081371834 
    0.00936432135172       21621.1827843        19557.8555596        13972.6151490        1883.71739522    0.000302309028477        1006.38294644       0.232918628166       0.767081371834 
    0.00943675358437       21609.1828651        19597.5777671        14024.6383167        1883.92028349    0.000302509484111        1005.71607435       0.232918628166       0.767081371834 
    0.00951036294703       21597.1144195        19637.0024686        14077.0655589        1884.12427775    0.000302711300676        1005.04556696       0.232918628166       0.767081371834 
    0.00966128088399       21572.7632678        19714.9264197        14183.1805188        1884.53572749    0.000303119178475        1003.69317555       0.232918628166       0.767081371834 
    0.00973867852939       21560.4760570        19753.4081905        14236.8933774        1884.74325724    0.000303325323885        1003.01104740       0.232918628166       0.767081371834 
    0.00981743174411       21548.1112997        19791.5574730        14291.0606510        1884.95204170    0.000303532998775        1002.32479513       0.232918628166       0.767081371834 
    0.00997920845984       21523.1393921        19866.8186013        14400.8134271        1885.37353538    0.000303953120188        1000.93939034       0.232918628166       0.767081371834 
     0.0100623399499       21510.5272362        19903.9090474        14456.4273445        1885.58632695    0.000304165661049        1000.23996714       0.232918628166       0.767081371834 
     0.0101470431873       21497.8275368        19940.6241103        14512.5524569        1885.80053770    0.000304379919845        999.535879263       0.232918628166       0.767081371834 
     0.0102333789668       21485.0376743        19976.9515203        14569.2038712        1886.01621064    0.000304595946331        998.826985315       0.232918628166       0.767081371834 
