# example-2.data
# Columns:
# 1: x (m)
# 2: T[0] (K)
# 3: T[1] (K)
# 4: T[2] (K)
# 5: p (Pa)
# 6: rho (kg/m^3)
# 7: u (m/s)
# 8: massf[0]-O2
# 9: massf[1]-N2
       0.00000000000       25105.5981607        205.000000000        205.000000000        1822.41498754    0.000251878746166        1207.87742294       0.232918628166       0.767081371834 
   1.00000000000e-06       25104.8810503        365.750196740        462.391859365        1822.42813535    0.000251887758206        1207.83420750       0.232918628166       0.767081371834 
   0.000100163585008       25034.3127947        1257.40605752        1212.53097165        1823.72080370    0.000252776965259        1203.58534450       0.232918628166       0.767081371834 
   0.000279832257300       24909.1548903        2154.66789519        1803.51006580        1826.00782265    0.000254365647145        1196.06815711       0.232918628166       0.767081371834 
   0.000399540590705       24827.6655215        2682.52893077        2130.47189896        1827.49304560    0.000255408098991        1191.18638765       0.232918628166       0.767081371834 
   0.000562561365078       24719.0710060        3354.78119359        2540.58041620        1829.46761853    0.000256807320490        1184.69617701       0.232918628166       0.767081371834 
   0.000746336883339       24599.8256509        4064.44689452        2974.02624195        1831.62975892    0.000258357146680        1177.58945213       0.232918628166       0.767081371834 
   0.000942144676297       24476.3696682        4774.12008437        3413.63272048        1833.86158016    0.000259976663556        1170.25369374       0.232918628166       0.767081371834 
    0.00114803471410       24350.4489120        5475.21003176        3857.63070895        1836.13103630    0.000261644444108        1162.79423341       0.232918628166       0.767081371834 
    0.00120249597877       24317.7410865        5654.04247028        3972.58703383        1836.71938989    0.000262080312672        1160.86037792       0.232918628166       0.767081371834 
    0.00124994071036       24289.4650340        5807.56828341        4071.92038725        1837.22764819    0.000262458015245        1159.18978709       0.232918628166       0.767081371834 
    0.00129714623127       24261.5332549        5958.26616880        4170.02522928        1837.72937676    0.000262831934675        1157.54065878       0.232918628166       0.767081371834 
    0.00133961844397       24236.5719264        6092.15540182        4257.69513335        1838.17746160    0.000263166777252        1156.06785168       0.232918628166       0.767081371834 
    0.00137366587534       24216.6764948        6198.35786119        4327.57891769        1838.53441433    0.000263434130240        1154.89458612       0.232918628166       0.767081371834 
    0.00140168324424       24200.3809395        6285.01065500        4384.82670611        1838.82665249    0.000263653417599        1153.93403045       0.232918628166       0.767081371834 
    0.00142755118521       24185.3968688        6364.42749476        4437.47723181        1839.09526971    0.000263855302718        1153.05111430       0.232918628166       0.767081371834 
    0.00150147422244       24142.9005234        6588.32542086        4586.87214223        1839.85656849    0.000264429156869        1150.54880640       0.232918628166       0.767081371834 
    0.00162083073203       24075.2887200        6940.64093924        4824.87030941        1841.06619589    0.000265346105274        1146.57289014       0.232918628166       0.767081371834 
    0.00171387756414       24023.4281989        7207.80585978        5007.76462980        1841.99269332    0.000266052741510        1143.52759188       0.232918628166       0.767081371834 
    0.00180513671387       23973.2749714        7463.78768485        5184.98207592        1842.88759803    0.000266738864629        1140.58613557       0.232918628166       0.767081371834 
    0.00191730437449       23912.5817617        7770.60589022        5399.96225270        1843.96914211    0.000267572821804        1137.03121551       0.232918628166       0.767081371834 
    0.00200595171078       23865.3464692        8007.27420605        5567.71017659        1844.80978864    0.000268224638259        1134.26810000       0.232918628166       0.767081371834 
    0.00211589346769       23807.6478128        8294.00055575        5773.18267604        1845.83537473    0.000269024165579        1130.89710792       0.232918628166       0.767081371834 
    0.00220345206921       23762.3858704        8517.19654989        5934.83093030        1846.63892047    0.000269653932556        1128.25593874       0.232918628166       0.767081371834 
    0.00231274028643       23706.7363478        8789.64484285        6134.17012188        1847.62570358    0.000270431354390        1125.01248792       0.232918628166       0.767081371834 
    0.00240025101620       23662.8430019        9003.07547044        6291.88043992        1848.40311325    0.000271046988678        1122.45722521       0.232918628166       0.767081371834 
    0.00250997958252       23608.6312786        9264.98286128        6487.27678767        1849.36216943    0.000271810342418        1119.30490984       0.232918628166       0.767081371834 
    0.00262031729716       23555.0306396        9522.17387327        6681.15924147        1850.30921778    0.000272568369659        1116.19206291       0.232918628166       0.767081371834 
    0.00270917428069       23512.5196036        9724.95493349        6835.43102341        1851.05948489    0.000273171899312        1113.72601493       0.232918628166       0.767081371834 
    0.00282114612158       23459.7685172        9975.15751118        7027.49868557        1851.98944241    0.000273923695227        1110.66934374       0.232918628166       0.767081371834 
    0.00291155843039       23417.8306523        10172.9772073        7180.70853622        1852.72795756    0.000274523679752        1108.24192320       0.232918628166       0.767081371834 
    0.00300280851724       23376.0899153        10368.9260159        7333.65921105        1853.46228735    0.000275122875732        1105.82825947       0.232918628166       0.767081371834 
    0.00311817714514       23324.1461741        10611.4845876        7524.65134398        1854.37512331    0.000275871385248        1102.82786502       0.232918628166       0.767081371834 
    0.00321161560813       23282.7449549        10803.8045713        7677.40867121        1855.10190469    0.000276470251833        1100.43901214       0.232918628166       0.767081371834 
    0.00330615625313       23241.4550070        10994.7241043        7830.23054652        1855.82604133    0.000277069530648        1098.05885223       0.232918628166       0.767081371834 
    0.00340187712103       23200.2551780        11184.3506340        7983.19854493        1856.54791121    0.000277669524964        1095.68614291       0.232918628166       0.767081371834 
    0.00352330634400       23148.8528390        11419.7070630        8174.72840572        1857.44758296    0.000278420949614        1092.72901782       0.232918628166       0.767081371834 
    0.00362196714893       23107.7876074        11606.7479329        8328.29264405        1858.16556697    0.000279023549113        1090.36908096       0.232918628166       0.767081371834 
    0.00372206217852       23066.7552670        11792.7568284        8482.22961799        1858.88230191    0.000279627707583        1088.01324963       0.232918628166       0.767081371834 
    0.00382367196191       23025.7407998        11977.7923038        8636.60069054        1859.59805328    0.000280233653553        1085.66065123       0.232918628166       0.767081371834 
    0.00390092266214       22994.9832592        12115.9600722        8752.69882795        1860.13436974    0.000280689416149        1083.89783622       0.232918628166       0.767081371834 
    0.00400538250406       22953.9668967        12299.4064549        8907.96797340        1860.84898402    0.000281299005193        1081.54897528       0.232918628166       0.767081371834 
    0.00411158924716       22912.9317655        12481.9971767        9063.82569555        1861.56325870    0.000281910956174        1079.20123056       0.232918628166       0.767081371834 
    0.00421963277111       22871.8657908        12663.7616592        9220.32466698        1862.27740463    0.000282525464455        1076.85390908       0.232918628166       0.767081371834 
    0.00430192701448       22841.0390579        12799.5570799        9338.15082378        1862.81305156    0.000282988139078        1075.09329473       0.232918628166       0.767081371834 
    0.00441341257026       22799.8914899        12979.9278416        9495.89531850        1863.52745216    0.000283607578873        1072.74513615       0.232918628166       0.767081371834 
    0.00452700260082       22758.6821827        13159.5221556        9654.42070281        1864.24225975    0.000284230091652        1070.39563983       0.232918628166       0.767081371834 
    0.00461363993848       22727.7282914        13293.7132557        9773.85715570        1864.77874264    0.000284699102898        1068.63227778       0.232918628166       0.767081371834 
    0.00470156765243       22696.7293073        13427.4735542        9893.78181643        1865.31563264    0.000285170022220        1066.86757761       0.232918628166       0.767081371834 
    0.00482089668702       22655.3196767        13605.1502296        10054.4771875        1866.03224765    0.000285801015544        1064.51214050       0.232918628166       0.767081371834 
    0.00491202914611       22624.1986390        13737.9027102        10175.6230384        1866.57037521    0.000286276686041        1062.74337258       0.232918628166       0.767081371834 
    0.00500462338271       22593.0181976        13870.2185209        10297.3276025        1867.10915385    0.000286754520924        1060.97246464       0.232918628166       0.767081371834 
    0.00513045458512       22551.3444753        14045.9521205        10460.5070178        1867.82866341    0.000287395136484        1058.60751346       0.232918628166       0.767081371834 
    0.00522668470698       22520.0088084        14177.2285958        10583.6000847        1868.36924240    0.000287878327417        1056.83068796       0.232918628166       0.767081371834 
    0.00532457630193       22488.5995176        14308.0475760        10707.3252353        1868.91071260    0.000288363946463        1055.05093318       0.232918628166       0.767081371834 
    0.00542419593463       22457.1122973        14438.4000611        10831.7053270        1869.45314627    0.000288852075137        1053.26801156       0.232918628166       0.767081371834 
    0.00552561361586       22425.5428239        14568.2757471        10956.7636280        1869.99661580    0.000289342796079        1051.48168517       0.232918628166       0.767081371834 
    0.00562890317545       22393.8867163        14697.6631721        11082.5239901        1870.54119435    0.000289836193704        1049.69171353       0.232918628166       0.767081371834 
    0.00573414248993       22362.1395486        14826.5496386        11209.0108106        1871.08695565    0.000290332354012        1047.89785433       0.232918628166       0.767081371834 
    0.00580542569041       22340.9219615        14912.1888569        11293.7513033        1871.45149050    0.000290664705794        1046.69966717       0.232918628166       0.767081371834 
    0.00591409997368       22309.0129600        15040.2091973        11421.5050826        1871.99939028    0.000291165667833        1044.89877902       0.232918628166       0.767081371834 
    0.00602495442224       22277.0007022        15167.6892110        11550.0538797        1872.54867511    0.000291669632644        1043.09333836       0.232918628166       0.767081371834 
    0.00610011567948       22255.5995214        15252.3673399        11636.2080239        1872.91567265    0.000292007323526        1041.88705660       0.232918628166       0.767081371834 
    0.00621481991887       22223.4046146        15378.9087415        11766.1424916        1873.46744019    0.000292516503713        1040.07345552       0.232918628166       0.767081371834 
    0.00633197370287       22191.0936052        15504.8623349        11896.9462157        1874.02080465    0.000293028944135        1038.25460557       0.232918628166       0.767081371834 
    0.00641149253082       22169.4859632        15588.4950442        11984.6461311        1874.39064200    0.000293372432334        1037.03898963       0.232918628166       0.767081371834 
    0.00653298334581       22136.9702659        15713.4241138        12116.9645864        1874.94685162    0.000293890533561        1035.21078793       0.232918628166       0.767081371834 
    0.00661550664727       22115.2213541        15796.3542169        12205.7028980        1875.31866463    0.000294237893724        1033.98867822       0.232918628166       0.767081371834 
    0.00674168399653       22082.4863566        15920.1986522        12339.6231971        1875.87795879    0.000294761954365        1032.15033795       0.232918628166       0.767081371834 
    0.00682745769849       22060.5862576        16002.3842024        12429.4595361        1876.25190965    0.000295113390251        1030.92120135       0.232918628166       0.767081371834 
    0.00691460691239       22038.6227833        16084.2594925        12519.7526815        1876.62676299    0.000295466516335        1029.68909840       0.232918628166       0.767081371834 
    0.00700317758414       22016.5942699        16165.8169319        12610.5128924        1877.00254589    0.000295821367346        1028.45394010       0.232918628166       0.767081371834 
    0.00713880495576       21983.4257899        16287.5401293        12747.5522042        1877.56802433    0.000296356956712        1026.59527277       0.232918628166       0.767081371834 
    0.00723114549629       21961.2270847        16368.2686504        12839.5270770        1877.94625458    0.000296716278866        1025.35207025       0.232918628166       0.767081371834 
    0.00732508700313       21938.9571598        16448.6513578        12932.0073919        1878.32551481    0.000297077455460        1024.10548233       0.232918628166       0.767081371834 
    0.00742068664123       21916.6141709        16528.6797558        13025.0047407        1878.70583490    0.000297440525430        1022.85541075       0.232918628166       0.767081371834 
    0.00751800439299       21894.1962641        16608.3450276        13118.5308972        1879.08724485    0.000297805528179        1021.60175694       0.232918628166       0.767081371834 
    0.00761710338184       21871.7015452        16687.6381434        13212.5979490        1879.46977526    0.000298172504080        1020.34442026       0.232918628166       0.767081371834 
    0.00771805003480       21849.1280908        16766.5498174        13307.2182552        1879.85345719    0.000298541494309        1019.08329868       0.232918628166       0.767081371834 
    0.00782091428266       21826.4739551        16845.0704843        13402.4044246        1880.23832200    0.000298912540743        1017.81828911       0.232918628166       0.767081371834 
    0.00792576999840       21803.7371279        16923.1904411        13498.1694946        1880.62440206    0.000299285686656        1016.54928511       0.232918628166       0.767081371834 
    0.00803269488918       21780.9156183        17000.8995598        13594.5265868        1881.01172938    0.000299660975362        1015.27618151       0.232918628166       0.767081371834 
    0.00814177115997       21758.0073738        17078.1875648        13691.4892500        1881.40033692    0.000300038451543        1013.99886997       0.232918628166       0.767081371834 
    0.00825308542552       21735.0103677        17155.0437399        13789.0710975        1881.79025714    0.000300418159831        1012.71724380       0.232918628166       0.767081371834 
    0.00830961020907       21723.4779428        17193.3064574        13838.0985299        1881.98571967    0.000300608865113        1012.07477929       0.232918628166       0.767081371834 
    0.00842445482530       21700.3439537        17269.4941739        13936.6352379        1882.37767030    0.000300992006735        1010.78647939       0.232918628166       0.767081371834 
    0.00854177621759       21677.1161156        17345.2218400        14035.8260305        1882.77101478    0.000301377494032        1009.49359802       0.232918628166       0.767081371834 
    0.00860139848057       21665.4663533        17382.9095040        14085.6712240        1882.96822007    0.000301571131932        1008.84540527       0.232918628166       0.767081371834 
    0.00872263477136       21642.0939095        17457.9248042        14185.8700534        1883.36371625    0.000301960224587        1007.54545149       0.232918628166       0.767081371834 
    0.00884662323054       21618.6225791        17532.4496526        14286.7588161        1883.76068619    0.000302351778091        1006.24065363       0.232918628166       0.767081371834 
    0.00890968725220       21606.8492316        17569.5241107        14337.4663704        1883.95973326    0.000302548491759        1005.58640714       0.232918628166       0.767081371834 
    0.00903803437456       21583.2259962        17643.2887894        14439.4167332        1884.35897006    0.000302943820944        1004.27415837       0.232918628166       0.767081371834 
    0.00910335063901       21571.3756648        17679.9755560        14490.6630218        1884.55916669    0.000303142447292        1003.61613337       0.232918628166       0.767081371834 
    0.00923635537034       21547.5964937        17752.9491248        14593.7064858        1884.96073323    0.000303541650284        1002.29622699       0.232918628166       0.767081371834 
    0.00930408010806       21535.6672496        17789.2322778        14645.5070447        1885.16210936    0.000303742237244        1001.63432512       0.232918628166       0.767081371834 
    0.00944206900517       21511.7285302        17861.3818337        14749.6739425        1885.56606126    0.000304145406424        1000.30657832       0.232918628166       0.767081371834 
    0.00951237283306       21499.7187114        17897.2443528        14802.0434701        1885.76864220    0.000304347998069        999.640716360       0.232918628166       0.767081371834 
    0.00965570269287       21475.6174432        17968.5346930        14907.3620976        1886.17502455    0.000304755216715        998.304980936       0.232918628166       0.767081371834 
    0.00972877192740       21463.5257668        18003.9582675        14960.3139427        1886.37882915    0.000304959851294        997.635096954       0.232918628166       0.767081371834 
    0.00980280729780       21451.4066010        18039.2312152        15013.4625525        1886.58304443    0.000305165174059        996.963863098       0.232918628166       0.767081371834 
    0.00995387020339       21427.0855636        18109.3161506        15120.3547135        1886.99270978    0.000305577895816        995.617336786       0.232918628166       0.767081371834 
     0.0100309462505       21414.8836537        18144.1233924        15174.1002560        1887.19815985    0.000305785299308        994.942044307       0.232918628166       0.767081371834 
     0.0101090855607       21402.6541710        18178.7705429        15228.0465727        1887.40402073    0.000305993400095        994.265401537       0.232918628166       0.767081371834 
     0.0102686590145       21378.1127428        18247.5743280        15336.5441256        1887.81696936    0.000306411697003        992.908083433       0.232918628166       0.767081371834 
