# air-Mach_12.3.data
# Columns:
# 1: x (m)
# 2: T (K)
# 3: p (Pa)
# 4: rho (kg/m^3)
# 5: e (J/kg)
# 6: a (m/s)
# 7: u (m/s)
# 8: M 
# 9 - 15: species moles (mol/m^3)
0.000000e+00 7.235641e+03 2.457276e+04 1.173449e-02 6.906972e+06 1.623788e+03 5.599770e+02 3.448585e-01 7.334331e-02 3.351098e-01 0.000000e+00 0.000000e+00 0.000000e+00 0.000000e+00 0.000000e+00 
2.296621e-05 7.208257e+03 2.457979e+04 1.175695e-02 6.910973e+06 1.623052e+03 5.589072e+02 3.443557e-01 7.259634e-02 3.357481e-01 3.313097e-06 1.771421e-03 2.988643e-06 4.734669e-13 4.734669e-13 
4.943109e-05 7.176543e+03 2.458806e+04 1.178350e-02 6.915684e+06 1.622168e+03 5.576480e+02 3.437670e-01 7.173402e-02 3.364950e-01 1.595286e-05 3.815296e-03 1.291978e-05 9.472935e-12 9.472935e-12 
7.776438e-05 7.142510e+03 2.459710e+04 1.181262e-02 6.920828e+06 1.621184e+03 5.562735e+02 3.431280e-01 7.080984e-02 3.373056e-01 4.081465e-05 6.002728e-03 2.977381e-05 5.390692e-11 5.390692e-11 
1.081839e-04 7.105995e+03 2.460695e+04 1.184456e-02 6.926445e+06 1.620087e+03 5.547734e+02 3.424343e-01 6.981776e-02 3.381857e-01 8.124216e-05 8.345741e-03 5.353336e-05 1.868876e-10 1.868876e-10 
1.408995e-04 7.066883e+03 2.461770e+04 1.187956e-02 6.932568e+06 1.618868e+03 5.531385e+02 3.416823e-01 6.875268e-02 3.391402e-01 1.410422e-04 1.085373e-02 8.416405e-05 4.957225e-10 4.957225e-10 
1.760694e-04 7.025164e+03 2.462936e+04 1.191780e-02 6.939219e+06 1.617518e+03 5.513637e+02 3.408701e-01 6.761206e-02 3.401719e-01 2.243307e-04 1.352969e-02 1.215379e-04 1.109772e-09 1.109772e-09 
2.137301e-04 6.981019e+03 2.464192e+04 1.195927e-02 6.946387e+06 1.616036e+03 5.494518e+02 3.399997e-01 6.639836e-02 3.412789e-01 3.351037e-04 1.636471e-02 1.653126e-04 2.203863e-09 2.203863e-09 
2.537176e-04 6.934897e+03 2.465529e+04 1.200371e-02 6.954016e+06 1.614430e+03 5.474180e+02 3.390783e-01 6.512143e-02 3.424523e-01 4.764788e-04 1.933260e-02 2.147985e-04 3.990032e-09 3.990032e-09 
2.956401e-04 6.887522e+03 2.466926e+04 1.205053e-02 6.961999e+06 1.612718e+03 5.452911e+02 3.381193e-01 6.379892e-02 3.436757e-01 6.498488e-04 2.238955e-02 2.689126e-04 6.692875e-09 6.692875e-09 
3.389560e-04 6.839751e+03 2.468361e+04 1.209896e-02 6.970196e+06 1.610930e+03 5.431082e+02 3.371396e-01 6.245299e-02 3.449279e-01 8.545162e-04 2.548219e-02 3.263184e-04 1.051611e-08 1.051611e-08 
3.831311e-04 6.792369e+03 2.469808e+04 1.214823e-02 6.978472e+06 1.609094e+03 5.409056e+02 3.361553e-01 6.110465e-02 3.461883e-01 1.088182e-03 2.856106e-02 3.857095e-04 1.561984e-08 1.561984e-08 
4.277631e-04 6.745942e+03 2.471250e+04 1.219771e-02 6.986722e+06 1.607237e+03 5.387115e+02 3.351786e-01 5.976957e-02 3.474413e-01 1.347887e-03 3.159001e-02 4.460436e-04 2.211890e-08 2.211890e-08 
4.726149e-04 6.700792e+03 2.472674e+04 1.224698e-02 6.994875e+06 1.605374e+03 5.365440e+02 3.342174e-01 5.845722e-02 3.486767e-01 1.630786e-03 3.454776e-02 5.066172e-04 3.009526e-08 3.009526e-08 
5.175823e-04 6.657064e+03 2.474074e+04 1.229581e-02 7.002896e+06 1.603517e+03 5.344132e+02 3.332756e-01 5.717222e-02 3.498892e-01 1.934479e-03 3.742447e-02 5.670154e-04 3.961173e-08 3.961173e-08 
5.626466e-04 6.614786e+03 2.475447e+04 1.234408e-02 7.010766e+06 1.601672e+03 5.323236e+02 3.323549e-01 5.591614e-02 3.510762e-01 2.257052e-03 4.021741e-02 6.270256e-04 5.072150e-08 5.072150e-08 
6.078372e-04 6.573927e+03 2.476792e+04 1.239173e-02 7.018479e+06 1.599842e+03 5.302766e+02 3.314557e-01 5.468880e-02 3.522373e-01 2.597007e-03 4.292777e-02 6.865639e-04 6.347392e-08 6.347392e-08 
6.532067e-04 6.534427e+03 2.478109e+04 1.243875e-02 7.026037e+06 1.598028e+03 5.282721e+02 3.305774e-01 5.348919e-02 3.533724e-01 2.953151e-03 4.555860e-02 7.456226e-04 7.791702e-08 7.791702e-08 
6.988173e-04 6.496215e+03 2.479399e+04 1.248515e-02 7.033442e+06 1.596233e+03 5.263090e+02 3.297194e-01 5.231597e-02 3.544824e-01 3.324517e-03 4.811364e-02 8.042379e-04 9.409910e-08 9.409910e-08 
7.447341e-04 6.459218e+03 2.480663e+04 1.253094e-02 7.040701e+06 1.594455e+03 5.243858e+02 3.288809e-01 5.116765e-02 3.555680e-01 3.710307e-03 5.059687e-02 8.624720e-04 1.120696e-07 1.120696e-07 
7.910210e-04 6.423366e+03 2.481902e+04 1.257614e-02 7.047818e+06 1.592695e+03 5.225009e+02 3.280608e-01 5.004281e-02 3.566302e-01 4.109836e-03 5.301207e-02 9.204000e-04 1.318796e-07 1.318796e-07 
8.377393e-04 6.388593e+03 2.483116e+04 1.262078e-02 7.054800e+06 1.590953e+03 5.206528e+02 3.272585e-01 4.894009e-02 3.576698e-01 4.522509e-03 5.536282e-02 9.781042e-04 1.535819e-07 1.535819e-07 
8.849472e-04 6.354839e+03 2.484307e+04 1.266488e-02 7.061652e+06 1.589228e+03 5.188400e+02 3.264729e-01 4.785827e-02 3.586877e-01 4.947794e-03 5.765237e-02 1.035670e-03 1.772315e-07 1.772315e-07 
9.326996e-04 6.322048e+03 2.485476e+04 1.270845e-02 7.068379e+06 1.587521e+03 5.170612e+02 3.257035e-01 4.679623e-02 3.596845e-01 5.385204e-03 5.988370e-02 1.093184e-03 2.028857e-07 2.028857e-07 
9.810484e-04 6.290170e+03 2.486624e+04 1.275151e-02 7.074986e+06 1.585831e+03 5.153149e+02 3.249495e-01 4.575295e-02 3.606610e-01 5.834287e-03 6.205949e-02 1.150731e-03 2.306041e-07 2.306041e-07 
1.030043e-03 6.259158e+03 2.487751e+04 1.279409e-02 7.081477e+06 1.584157e+03 5.136000e+02 3.242103e-01 4.472754e-02 3.616179e-01 6.294616e-03 6.418218e-02 1.208396e-03 2.604493e-07 2.604493e-07 
1.079730e-03 6.228972e+03 2.488857e+04 1.283619e-02 7.087856e+06 1.582500e+03 5.119154e+02 3.234853e-01 4.371918e-02 3.625557e-01 6.765782e-03 6.625400e-02 1.266260e-03 2.924865e-07 2.924865e-07 
1.130155e-03 6.199571e+03 2.489945e+04 1.287783e-02 7.094127e+06 1.580859e+03 5.102601e+02 3.227739e-01 4.272716e-02 3.634750e-01 7.247387e-03 6.827694e-02 1.324406e-03 3.267838e-07 3.267838e-07 
1.181362e-03 6.170921e+03 2.491014e+04 1.291903e-02 7.100293e+06 1.579234e+03 5.086331e+02 3.220758e-01 4.175083e-02 3.643763e-01 7.739036e-03 7.025283e-02 1.382909e-03 3.634123e-07 3.634123e-07 
1.233391e-03 6.142989e+03 2.492065e+04 1.295978e-02 7.106358e+06 1.577626e+03 5.070337e+02 3.213904e-01 4.078962e-02 3.652600e-01 8.240338e-03 7.218335e-02 1.441847e-03 4.024464e-07 4.024464e-07 
1.286283e-03 6.115746e+03 2.493099e+04 1.300011e-02 7.112324e+06 1.576033e+03 5.054609e+02 3.207173e-01 3.984302e-02 3.661265e-01 8.750902e-03 7.407003e-02 1.501292e-03 4.439636e-07 4.439636e-07 
1.340080e-03 6.089163e+03 2.494115e+04 1.304001e-02 7.118194e+06 1.574455e+03 5.039141e+02 3.200562e-01 3.891057e-02 3.669764e-01 9.270329e-03 7.591429e-02 1.561316e-03 4.880450e-07 4.880450e-07 
1.394819e-03 6.063215e+03 2.495115e+04 1.307950e-02 7.123970e+06 1.572893e+03 5.023926e+02 3.194066e-01 3.799188e-02 3.678099e-01 9.798212e-03 7.771742e-02 1.621987e-03 5.347749e-07 5.347749e-07 
1.450538e-03 6.037878e+03 2.496099e+04 1.311859e-02 7.129655e+06 1.571347e+03 5.008957e+02 3.187684e-01 3.708659e-02 3.686274e-01 1.033413e-02 7.948062e-02 1.683371e-03 5.842411e-07 5.842411e-07 
1.507277e-03 6.013130e+03 2.497066e+04 1.315727e-02 7.135250e+06 1.569815e+03 4.994229e+02 3.181412e-01 3.619439e-02 3.694293e-01 1.087767e-02 8.120502e-02 1.745530e-03 6.365352e-07 6.365352e-07 
1.565073e-03 5.988951e+03 2.498019e+04 1.319557e-02 7.140759e+06 1.568292e+03 4.979737e+02 3.175261e-01 3.531502e-02 3.702159e-01 1.142836e-02 8.289166e-02 1.808526e-03 6.917521e-07 6.917521e-07 
1.623963e-03 5.965322e+03 2.498956e+04 1.323346e-02 7.146181e+06 1.566776e+03 4.965477e+02 3.169233e-01 3.444824e-02 3.709875e-01 1.198575e-02 8.454148e-02 1.872416e-03 7.499902e-07 7.499902e-07 
1.683984e-03 5.942227e+03 2.499878e+04 1.327097e-02 7.151518e+06 1.565274e+03 4.951444e+02 3.163308e-01 3.359386e-02 3.717443e-01 1.254936e-02 8.615541e-02 1.937255e-03 8.113522e-07 8.113522e-07 
1.745175e-03 5.919647e+03 2.500785e+04 1.330808e-02 7.156773e+06 1.563787e+03 4.937635e+02 3.157486e-01 3.275171e-02 3.724866e-01 1.311868e-02 8.773429e-02 2.003095e-03 8.759439e-07 8.759439e-07 
1.807573e-03 5.897568e+03 2.501678e+04 1.334481e-02 7.161946e+06 1.562315e+03 4.924045e+02 3.151763e-01 3.192166e-02 3.732148e-01 1.369318e-02 8.927896e-02 2.069985e-03 9.438749e-07 9.438749e-07 
1.871215e-03 5.875974e+03 2.502557e+04 1.338116e-02 7.167039e+06 1.560857e+03 4.910670e+02 3.146137e-01 3.110362e-02 3.739291e-01 1.427231e-02 9.079016e-02 2.137970e-03 1.015259e-06 1.015259e-06 
1.936141e-03 5.854852e+03 2.503422e+04 1.341712e-02 7.172052e+06 1.559415e+03 4.897509e+02 3.140607e-01 3.029752e-02 3.746299e-01 1.485549e-02 9.226864e-02 2.207091e-03 1.090212e-06 1.090212e-06 
2.002387e-03 5.834189e+03 2.504273e+04 1.345270e-02 7.176987e+06 1.557987e+03 4.884556e+02 3.135171e-01 2.950332e-02 3.753174e-01 1.544211e-02 9.371508e-02 2.277385e-03 1.168854e-06 1.168854e-06 
2.069994e-03 5.813972e+03 2.505111e+04 1.348789e-02 7.181846e+06 1.556575e+03 4.871811e+02 3.129827e-01 2.872101e-02 3.759920e-01 1.603153e-02 9.513014e-02 2.348887e-03 1.251309e-06 1.251309e-06 
2.138999e-03 5.794191e+03 2.505935e+04 1.352270e-02 7.186627e+06 1.555178e+03 4.859270e+02 3.124575e-01 2.795059e-02 3.766539e-01 1.662309e-02 9.651447e-02 2.421623e-03 1.337702e-06 1.337702e-06 
2.209444e-03 5.774834e+03 2.506745e+04 1.355712e-02 7.191333e+06 1.553796e+03 4.846932e+02 3.119412e-01 2.719210e-02 3.773034e-01 1.721609e-02 9.786867e-02 2.495617e-03 1.428163e-06 1.428163e-06 
2.281367e-03 5.755893e+03 2.507543e+04 1.359116e-02 7.195965e+06 1.552431e+03 4.834794e+02 3.114338e-01 2.644560e-02 3.779408e-01 1.780978e-02 9.919334e-02 2.570889e-03 1.522822e-06 1.522822e-06 
2.354810e-03 5.737356e+03 2.508327e+04 1.362480e-02 7.200521e+06 1.551081e+03 4.822856e+02 3.109352e-01 2.571116e-02 3.785665e-01 1.840341e-02 1.004890e-01 2.647450e-03 1.621814e-06 1.621814e-06 
2.429814e-03 5.719216e+03 2.509099e+04 1.365805e-02 7.205004e+06 1.549746e+03 4.811115e+02 3.104453e-01 2.498890e-02 3.791806e-01 1.899618e-02 1.017563e-01 2.725307e-03 1.725273e-06 1.725273e-06 
2.506423e-03 5.701464e+03 2.509857e+04 1.369090e-02 7.209412e+06 1.548429e+03 4.799570e+02 3.099639e-01 2.427892e-02 3.797837e-01 1.958725e-02 1.029958e-01 2.804460e-03 1.833336e-06 1.833336e-06 
2.584677e-03 5.684092e+03 2.510603e+04 1.372335e-02 7.213748e+06 1.547127e+03 4.788221e+02 3.094911e-01 2.358137e-02 3.803758e-01 2.017575e-02 1.042079e-01 2.884903e-03 1.946139e-06 1.946139e-06 
2.664622e-03 5.667094e+03 2.511336e+04 1.375539e-02 7.218010e+06 1.545843e+03 4.777068e+02 3.090267e-01 2.289640e-02 3.809574e-01 2.076079e-02 1.053932e-01 2.966623e-03 2.063822e-06 2.063822e-06 
2.746302e-03 5.650462e+03 2.512056e+04 1.378702e-02 7.222199e+06 1.544575e+03 4.766108e+02 3.085708e-01 2.222418e-02 3.815288e-01 2.134144e-02 1.065523e-01 3.049598e-03 2.186520e-06 2.186520e-06 
2.829763e-03 5.634190e+03 2.512764e+04 1.381823e-02 7.226315e+06 1.543325e+03 4.755343e+02 3.081232e-01 2.156488e-02 3.820903e-01 2.191674e-02 1.076856e-01 3.133800e-03 2.314370e-06 2.314370e-06 
2.915052e-03 5.618272e+03 2.513458e+04 1.384902e-02 7.230358e+06 1.542093e+03 4.744772e+02 3.076839e-01 2.091872e-02 3.826422e-01 2.248570e-02 1.087937e-01 3.219191e-03 2.447505e-06 2.447505e-06 
3.002215e-03 5.602702e+03 2.514140e+04 1.387937e-02 7.234328e+06 1.540879e+03 4.734395e+02 3.072530e-01 2.028589e-02 3.831849e-01 2.304731e-02 1.098770e-01 3.305725e-03 2.586057e-06 2.586057e-06 
3.091302e-03 5.587475e+03 2.514809e+04 1.390929e-02 7.238224e+06 1.539683e+03 4.724213e+02 3.068303e-01 1.966659e-02 3.837187e-01 2.360053e-02 1.109362e-01 3.393348e-03 2.730152e-06 2.730152e-06 
3.182364e-03 5.572586e+03 2.515466e+04 1.393876e-02 7.242047e+06 1.538506e+03 4.714225e+02 3.064159e-01 1.906106e-02 3.842440e-01 2.414431e-02 1.119717e-01 3.481997e-03 2.879913e-06 2.879913e-06 
3.275450e-03 5.558030e+03 2.516109e+04 1.396777e-02 7.245796e+06 1.537347e+03 4.704433e+02 3.060097e-01 1.846950e-02 3.847611e-01 2.467758e-02 1.129841e-01 3.571598e-03 3.035456e-06 3.035456e-06 
3.370614e-03 5.543803e+03 2.516740e+04 1.399632e-02 7.249471e+06 1.536209e+03 4.694836e+02 3.056118e-01 1.789214e-02 3.852703e-01 2.519927e-02 1.139739e-01 3.662068e-03 3.196889e-06 3.196889e-06 
3.467909e-03 5.529899e+03 2.517357e+04 1.402441e-02 7.253072e+06 1.535090e+03 4.685436e+02 3.052222e-01 1.732919e-02 3.857720e-01 2.570829e-02 1.149416e-01 3.753317e-03 3.364313e-06 3.364313e-06 
3.567390e-03 5.516316e+03 2.517962e+04 1.405201e-02 7.256598e+06 1.533992e+03 4.676232e+02 3.048408e-01 1.678086e-02 3.862666e-01 2.620356e-02 1.158879e-01 3.845243e-03 3.537817e-06 3.537817e-06 
3.669116e-03 5.503048e+03 2.518554e+04 1.407912e-02 7.260050e+06 1.532914e+03 4.667226e+02 3.044676e-01 1.624736e-02 3.867544e-01 2.668400e-02 1.168132e-01 3.937736e-03 3.717480e-06 3.717480e-06 
3.773142e-03 5.490093e+03 2.519133e+04 1.410574e-02 7.263426e+06 1.531857e+03 4.658418e+02 3.041026e-01 1.572886e-02 3.872357e-01 2.714855e-02 1.177182e-01 4.030677e-03 3.903365e-06 3.903365e-06 
3.879531e-03 5.477445e+03 2.519698e+04 1.413186e-02 7.266727e+06 1.530822e+03 4.649809e+02 3.037459e-01 1.522556e-02 3.877111e-01 2.759619e-02 1.186035e-01 4.123940e-03 4.095524e-06 4.095524e-06 
3.988342e-03 5.465100e+03 2.520251e+04 1.415747e-02 7.269952e+06 1.529808e+03 4.641399e+02 3.033974e-01 1.473759e-02 3.881806e-01 2.802588e-02 1.194696e-01 4.217388e-03 4.293988e-06 4.293988e-06 
4.099640e-03 5.453056e+03 2.520791e+04 1.418256e-02 7.273102e+06 1.528817e+03 4.633188e+02 3.030571e-01 1.426509e-02 3.886449e-01 2.843667e-02 1.203173e-01 4.310880e-03 4.498772e-06 4.498772e-06 
4.213491e-03 5.441307e+03 2.521317e+04 1.420712e-02 7.276175e+06 1.527848e+03 4.625177e+02 3.027250e-01 1.380816e-02 3.891041e-01 2.882762e-02 1.211470e-01 4.404267e-03 4.709871e-06 4.709871e-06 
4.329960e-03 5.429850e+03 2.521830e+04 1.423116e-02 7.279173e+06 1.526902e+03 4.617366e+02 3.024010e-01 1.336689e-02 3.895587e-01 2.919785e-02 1.219596e-01 4.497397e-03 4.927254e-06 4.927254e-06 
4.449118e-03 5.418679e+03 2.522330e+04 1.425466e-02 7.282094e+06 1.525978e+03 4.609754e+02 3.020852e-01 1.294132e-02 3.900090e-01 2.954655e-02 1.227555e-01 4.590112e-03 5.150870e-06 5.150870e-06 
4.571035e-03 5.407791e+03 2.522818e+04 1.427762e-02 7.284940e+06 1.525078e+03 4.602340e+02 3.017774e-01 1.253146e-02 3.904553e-01 2.987297e-02 1.235356e-01 4.682251e-03 5.380639e-06 5.380639e-06 
4.695786e-03 5.397181e+03 2.523292e+04 1.430003e-02 7.287711e+06 1.524201e+03 4.595125e+02 3.014777e-01 1.213728e-02 3.908980e-01 3.017644e-02 1.243005e-01 4.773655e-03 5.616454e-06 5.616454e-06 
4.823444e-03 5.386843e+03 2.523753e+04 1.432191e-02 7.290406e+06 1.523347e+03 4.588107e+02 3.011860e-01 1.175873e-02 3.913373e-01 3.045636e-02 1.250509e-01 4.864161e-03 5.858177e-06 5.858177e-06 
4.954087e-03 5.376772e+03 2.524201e+04 1.434324e-02 7.293027e+06 1.522516e+03 4.581284e+02 3.009021e-01 1.139569e-02 3.917736e-01 3.071225e-02 1.257875e-01 4.953610e-03 6.105639e-06 6.105639e-06 
5.087794e-03 5.366962e+03 2.524637e+04 1.436402e-02 7.295573e+06 1.521710e+03 4.574655e+02 3.006260e-01 1.104802e-02 3.922073e-01 3.094369e-02 1.265109e-01 5.041848e-03 6.358636e-06 6.358636e-06 
5.224646e-03 5.357409e+03 2.525060e+04 1.438427e-02 7.298047e+06 1.520926e+03 4.568216e+02 3.003576e-01 1.071554e-02 3.926385e-01 3.115037e-02 1.272220e-01 5.128724e-03 6.616931e-06 6.616931e-06 
5.364726e-03 5.348104e+03 2.525471e+04 1.440397e-02 7.300449e+06 1.520165e+03 4.561966e+02 3.000967e-01 1.039800e-02 3.930676e-01 3.133209e-02 1.279215e-01 5.214096e-03 6.880248e-06 6.880248e-06 
5.508117e-03 5.339042e+03 2.525869e+04 1.442315e-02 7.302780e+06 1.519428e+03 4.555902e+02 2.998432e-01 1.009515e-02 3.934948e-01 3.148877e-02 1.286099e-01 5.297828e-03 7.148274e-06 7.148274e-06 
5.654905e-03 5.330215e+03 2.526256e+04 1.444180e-02 7.305042e+06 1.518713e+03 4.550019e+02 2.995970e-01 9.806657e-03 3.939204e-01 3.162041e-02 1.292881e-01 5.379797e-03 7.420657e-06 7.420657e-06 
5.805174e-03 5.321617e+03 2.526630e+04 1.445993e-02 7.307235e+06 1.518021e+03 4.544314e+02 2.993578e-01 9.532177e-03 3.943446e-01 3.172713e-02 1.299567e-01 5.459890e-03 7.697004e-06 7.697004e-06 
5.959011e-03 5.313240e+03 2.526994e+04 1.447755e-02 7.309362e+06 1.517350e+03 4.538782e+02 2.991255e-01 9.271315e-03 3.947677e-01 3.180916e-02 1.306164e-01 5.538010e-03 7.976885e-06 7.976885e-06 
6.116501e-03 5.305075e+03 2.527346e+04 1.449468e-02 7.311425e+06 1.516701e+03 4.533419e+02 2.988999e-01 9.023647e-03 3.951898e-01 3.186685e-02 1.312679e-01 5.614071e-03 8.259827e-06 8.259827e-06 
6.277729e-03 5.297116e+03 2.527688e+04 1.451132e-02 7.313425e+06 1.516073e+03 4.528219e+02 2.986808e-01 8.788714e-03 3.956111e-01 3.190064e-02 1.319117e-01 5.688006e-03 8.545317e-06 8.545317e-06 
6.442778e-03 5.289353e+03 2.528019e+04 1.452750e-02 7.315365e+06 1.515465e+03 4.523177e+02 2.984679e-01 8.566028e-03 3.960319e-01 3.191107e-02 1.325486e-01 5.759762e-03 8.832807e-06 8.832807e-06 
6.611728e-03 5.281778e+03 2.528341e+04 1.454322e-02 7.317246e+06 1.514877e+03 4.518286e+02 2.982610e-01 8.355077e-03 3.964521e-01 3.189879e-02 1.331790e-01 5.829303e-03 9.121709e-06 9.121709e-06 
6.784656e-03 5.274382e+03 2.528653e+04 1.455851e-02 7.319072e+06 1.514307e+03 4.513542e+02 2.980598e-01 8.155328e-03 3.968720e-01 3.186453e-02 1.338036e-01 5.896612e-03 9.411403e-06 9.411403e-06 
6.961635e-03 5.267158e+03 2.528955e+04 1.457338e-02 7.320844e+06 1.513756e+03 4.508937e+02 2.978641e-01 7.966230e-03 3.972917e-01 3.180910e-02 1.344228e-01 5.961689e-03 9.701238e-06 9.701238e-06 
7.142733e-03 5.260095e+03 2.529249e+04 1.458785e-02 7.322566e+06 1.513222e+03 4.504464e+02 2.976736e-01 7.787222e-03 3.977112e-01 3.173341e-02 1.350371e-01 6.024549e-03 9.990537e-06 9.990537e-06 
7.328012e-03 5.253187e+03 2.529535e+04 1.460194e-02 7.324239e+06 1.512705e+03 4.500118e+02 2.974881e-01 7.617732e-03 3.981305e-01 3.163841e-02 1.356469e-01 6.085225e-03 1.027860e-05 1.027860e-05 
7.517525e-03 5.246424e+03 2.529812e+04 1.461567e-02 7.325866e+06 1.512203e+03 4.495891e+02 2.973073e-01 7.457189e-03 3.985498e-01 3.152513e-02 1.362526e-01 6.143767e-03 1.056472e-05 1.056472e-05 
7.711320e-03 5.239797e+03 2.530083e+04 1.462905e-02 7.327450e+06 1.511717e+03 4.491777e+02 2.971309e-01 7.305020e-03 3.989690e-01 3.139464e-02 1.368545e-01 6.200237e-03 1.084816e-05 1.084816e-05 
7.909436e-03 5.233300e+03 2.530346e+04 1.464212e-02 7.328993e+06 1.511244e+03 4.487768e+02 2.969586e-01 7.160660e-03 3.993881e-01 3.124804e-02 1.374529e-01 6.254713e-03 1.112821e-05 1.112821e-05 
8.111902e-03 5.226924e+03 2.530603e+04 1.465489e-02 7.330499e+06 1.510784e+03 4.483859e+02 2.967903e-01 7.023552e-03 3.998070e-01 3.108647e-02 1.380480e-01 6.307284e-03 1.140416e-05 1.140416e-05 
8.318739e-03 5.220662e+03 2.530854e+04 1.466737e-02 7.331969e+06 1.510336e+03 4.480042e+02 2.966255e-01 6.893156e-03 4.002257e-01 3.091110e-02 1.386400e-01 6.358048e-03 1.167529e-05 1.167529e-05 
8.529958e-03 5.214507e+03 2.531099e+04 1.467960e-02 7.333406e+06 1.509899e+03 4.476311e+02 2.964642e-01 6.768946e-03 4.006442e-01 3.072308e-02 1.392289e-01 6.407114e-03 1.194095e-05 1.194095e-05 
8.745562e-03 5.208451e+03 2.531339e+04 1.469158e-02 7.334812e+06 1.509473e+03 4.472661e+02 2.963060e-01 6.650419e-03 4.010622e-01 3.052356e-02 1.398150e-01 6.454596e-03 1.220049e-05 1.220049e-05 
8.965544e-03 5.202490e+03 2.531574e+04 1.470334e-02 7.336190e+06 1.509057e+03 4.469084e+02 2.961508e-01 6.537096e-03 4.014798e-01 3.031369e-02 1.403983e-01 6.500614e-03 1.245331e-05 1.245331e-05 
9.189892e-03 5.196617e+03 2.531804e+04 1.471489e-02 7.337541e+06 1.508650e+03 4.465577e+02 2.959983e-01 6.428521e-03 4.018967e-01 3.009459e-02 1.409786e-01 6.545290e-03 1.269886e-05 1.269886e-05 
9.418582e-03 5.190827e+03 2.532031e+04 1.472624e-02 7.338869e+06 1.508250e+03 4.462132e+02 2.958483e-01 6.324270e-03 4.023129e-01 2.986733e-02 1.415562e-01 6.588748e-03 1.293665e-05 1.293665e-05 
9.651589e-03 5.185114e+03 2.532253e+04 1.473743e-02 7.340173e+06 1.507858e+03 4.458746e+02 2.957006e-01 6.223942e-03 4.027281e-01 2.963296e-02 1.421307e-01 6.631112e-03 1.316626e-05 1.316626e-05 
9.888880e-03 5.179475e+03 2.532472e+04 1.474845e-02 7.341457e+06 1.507473e+03 4.455414e+02 2.955551e-01 6.127172e-03 4.031423e-01 2.939247e-02 1.427023e-01 6.672502e-03 1.338732e-05 1.338732e-05 
